# Potential function.
#  r             r*V(r)
   0.000000E+00 -4.090650E+01
   1.000000E-08 -4.090650E+01
   1.260383E-08 -4.090650E+01
   1.588565E-08 -4.090650E+01
   2.002200E-08 -4.090650E+01
   2.523539E-08 -4.090650E+01
   3.180626E-08 -4.090650E+01
   4.008806E-08 -4.090650E+01
   5.052631E-08 -4.090649E+01
   6.368250E-08 -4.090649E+01
   8.026434E-08 -4.090649E+01
   1.011638E-07 -4.090649E+01
   1.275051E-07 -4.090648E+01
   1.607053E-07 -4.090648E+01
   2.025502E-07 -4.090648E+01
   2.552908E-07 -4.090647E+01
   3.217642E-07 -4.090646E+01
   4.055461E-07 -4.090645E+01
   5.111433E-07 -4.090644E+01
   6.442364E-07 -4.090642E+01
   8.119845E-07 -4.090640E+01
   1.023411E-06 -4.090637E+01
   1.289890E-06 -4.090634E+01
   1.625756E-06 -4.090630E+01
   2.049075E-06 -4.090625E+01
   2.582619E-06 -4.090618E+01
   3.255089E-06 -4.090610E+01
   4.102658E-06 -4.090600E+01
   5.170920E-06 -4.090587E+01
   6.517340E-06 -4.090570E+01
   8.214344E-06 -4.090550E+01
   1.035322E-05 -4.090523E+01
   1.304902E-05 -4.090491E+01
   1.644676E-05 -4.090449E+01
   2.072922E-05 -4.090397E+01
   2.612675E-05 -4.090331E+01
   3.292971E-05 -4.090248E+01
   4.150405E-05 -4.090143E+01
   5.231099E-05 -4.090011E+01
   6.593188E-05 -4.089844E+01
   8.309942E-05 -4.089635E+01
   1.047371E-04 -4.089370E+01
   1.320088E-04 -4.089037E+01
   1.663817E-04 -4.088618E+01
   2.097046E-04 -4.088088E+01
   2.643081E-04 -4.087422E+01
   3.331295E-04 -4.086582E+01
   4.198707E-04 -4.085523E+01
   5.291979E-04 -4.084189E+01
   6.669920E-04 -4.082509E+01
   8.406653E-04 -4.080393E+01
   1.059560E-03 -4.077727E+01
   1.335452E-03 -4.074370E+01
   1.683180E-03 -4.070143E+01
   2.121452E-03 -4.064823E+01
   2.673842E-03 -4.058130E+01
   3.370064E-03 -4.049712E+01
   4.247572E-03 -4.039131E+01
   5.353567E-03 -4.025841E+01
   6.747544E-03 -4.009165E+01
   7.626017E-03 -3.998697E+01
   8.504489E-03 -3.988261E+01
   9.058095E-03 -3.981701E+01
   9.334898E-03 -3.978426E+01
   9.611701E-03 -3.975154E+01
   9.750103E-03 -3.973519E+01
   9.888504E-03 -3.971885E+01
   9.923105E-03 -3.971477E+01
   9.957705E-03 -3.971068E+01
   9.975005E-03 -3.970864E+01
   9.983655E-03 -3.970762E+01
   9.992305E-03 -3.970660E+01
   9.996630E-03 -3.970609E+01
   9.997712E-03 -3.970596E+01
   9.998793E-03 -3.970583E+01
   9.999334E-03 -3.970577E+01
   9.999401E-03 -3.970576E+01
   9.999469E-03 -3.970575E+01
   9.999536E-03 -3.970575E+01
   9.999604E-03 -3.970574E+01
   9.999671E-03 -3.970573E+01
   9.999739E-03 -3.970572E+01
   9.999807E-03 -3.970571E+01
   9.999874E-03 -3.970571E+01
   9.999942E-03 -3.970570E+01
   1.000001E-02 -3.679919E+01
   1.000008E-02 -3.679918E+01
   1.000014E-02 -3.679917E+01
   1.000021E-02 -3.679916E+01
   1.000028E-02 -3.679915E+01
   1.000035E-02 -3.679915E+01
   1.000041E-02 -3.679914E+01
   1.000048E-02 -3.679913E+01
   1.000055E-02 -3.679912E+01
   1.000062E-02 -3.679911E+01
   1.000069E-02 -3.679911E+01
   1.000096E-02 -3.679907E+01
   1.000204E-02 -3.679895E+01
   1.000312E-02 -3.679882E+01
   1.000528E-02 -3.679856E+01
   1.000961E-02 -3.679805E+01
   1.001826E-02 -3.679703E+01
   1.002691E-02 -3.679601E+01
   1.004421E-02 -3.679397E+01
   1.006151E-02 -3.679193E+01
   1.009611E-02 -3.678785E+01
   1.016531E-02 -3.677969E+01
   1.030371E-02 -3.676337E+01
   1.044211E-02 -3.674706E+01
   1.071891E-02 -3.671447E+01
   1.141667E-02 -3.663244E+01
   1.211442E-02 -3.655062E+01
   1.350994E-02 -3.638757E+01
   1.526881E-02 -3.618320E+01
   1.702769E-02 -3.598008E+01
   1.813612E-02 -3.585272E+01
   1.924455E-02 -3.572585E+01
   2.035298E-02 -3.559947E+01
   2.146141E-02 -3.547358E+01
   2.215994E-02 -3.539450E+01
   2.285846E-02 -3.531561E+01
   2.425550E-02 -3.515840E+01
   2.565255E-02 -3.500197E+01
   2.704960E-02 -3.484629E+01
   2.793000E-02 -3.474858E+01
   2.881041E-02 -3.465116E+01
   2.969082E-02 -3.455405E+01
   3.057122E-02 -3.445723E+01
   3.233204E-02 -3.426450E+01
   3.321244E-02 -3.416857E+01
   3.409285E-02 -3.407294E+01
   3.520250E-02 -3.395283E+01
   3.631215E-02 -3.383318E+01
   3.742180E-02 -3.371400E+01
   3.853145E-02 -3.359528E+01
   3.964110E-02 -3.347702E+01
   4.075075E-02 -3.335922E+01
   4.186040E-02 -3.324188E+01
   4.297005E-02 -3.312499E+01
   4.436863E-02 -3.297831E+01
   4.576721E-02 -3.283234E+01
   4.716580E-02 -3.268709E+01
   4.856438E-02 -3.254255E+01
   4.996296E-02 -3.239871E+01
   5.136155E-02 -3.225557E+01
   5.276013E-02 -3.211314E+01
   5.415871E-02 -3.197140E+01
   5.504009E-02 -3.188243E+01
   5.592146E-02 -3.179374E+01
   5.680284E-02 -3.170532E+01
   5.768421E-02 -3.161717E+01
   5.856559E-02 -3.152929E+01
   5.944697E-02 -3.144169E+01
   6.120972E-02 -3.126728E+01
   6.209109E-02 -3.118048E+01
   6.297247E-02 -3.109395E+01
   6.385384E-02 -3.100769E+01
   6.473522E-02 -3.092169E+01
   6.561659E-02 -3.083595E+01
   6.649797E-02 -3.075048E+01
   6.737934E-02 -3.066528E+01
   6.826072E-02 -3.058033E+01
   6.937159E-02 -3.047364E+01
   7.048246E-02 -3.036737E+01
   7.159333E-02 -3.026150E+01
   7.270420E-02 -3.015605E+01
   7.492594E-02 -2.994637E+01
   7.603681E-02 -2.984214E+01
   7.714768E-02 -2.973832E+01
   7.825855E-02 -2.963489E+01
   7.936942E-02 -2.953187E+01
   8.159116E-02 -2.932703E+01
   8.270203E-02 -2.922520E+01
   8.381290E-02 -2.912377E+01
   8.492377E-02 -2.902273E+01
   8.603464E-02 -2.892209E+01
   8.673471E-02 -2.885886E+01
   8.743477E-02 -2.879579E+01
   8.883489E-02 -2.867012E+01
   9.023501E-02 -2.854505E+01
   9.163513E-02 -2.842060E+01
   9.303525E-02 -2.829676E+01
   9.443538E-02 -2.817352E+01
   9.583550E-02 -2.805089E+01
   9.723562E-02 -2.792885E+01
   9.793568E-02 -2.786806E+01
   9.863574E-02 -2.780741E+01
   9.933580E-02 -2.774692E+01
   1.000359E-01 -2.768657E+01
   1.014360E-01 -2.756631E+01
   1.028361E-01 -2.744665E+01
   1.042362E-01 -2.732757E+01
   1.056364E-01 -2.720907E+01
   1.070365E-01 -2.709115E+01
   1.084366E-01 -2.697381E+01
   1.102013E-01 -2.682673E+01
   1.110836E-01 -2.675353E+01
   1.119660E-01 -2.668055E+01
   1.128483E-01 -2.660780E+01
   1.137307E-01 -2.653528E+01
   1.146130E-01 -2.646298E+01
   1.154954E-01 -2.639090E+01
   1.163777E-01 -2.631905E+01
   1.172600E-01 -2.624741E+01
   1.181424E-01 -2.617600E+01
   1.190247E-01 -2.610481E+01
   1.199071E-01 -2.603383E+01
   1.207894E-01 -2.596308E+01
   1.225541E-01 -2.582222E+01
   1.234365E-01 -2.575212E+01
   1.243188E-01 -2.568224E+01
   1.252012E-01 -2.561257E+01
   1.260835E-01 -2.554311E+01
   1.278482E-01 -2.540485E+01
   1.287305E-01 -2.533603E+01
   1.296129E-01 -2.526743E+01
   1.304952E-01 -2.519904E+01
   1.313776E-01 -2.513086E+01
   1.322599E-01 -2.506289E+01
   1.331423E-01 -2.499513E+01
   1.340246E-01 -2.492758E+01
   1.349069E-01 -2.486024E+01
   1.357893E-01 -2.479310E+01
   1.366716E-01 -2.472618E+01
   1.377837E-01 -2.464212E+01
   1.388958E-01 -2.455838E+01
   1.400079E-01 -2.447498E+01
   1.411200E-01 -2.439189E+01
   1.422321E-01 -2.430913E+01
   1.433442E-01 -2.422669E+01
   1.455684E-01 -2.406277E+01
   1.466805E-01 -2.398129E+01
   1.477926E-01 -2.390013E+01
   1.489047E-01 -2.381928E+01
   1.500167E-01 -2.373874E+01
   1.511288E-01 -2.365852E+01
   1.522409E-01 -2.357861E+01
   1.533530E-01 -2.349901E+01
   1.544651E-01 -2.341972E+01
   1.555772E-01 -2.334074E+01
   1.566893E-01 -2.326206E+01
   1.589135E-01 -2.310562E+01
   1.600256E-01 -2.302786E+01
   1.611377E-01 -2.295040E+01
   1.622498E-01 -2.287324E+01
   1.633619E-01 -2.279638E+01
   1.644739E-01 -2.271982E+01
   1.655860E-01 -2.264356E+01
   1.666981E-01 -2.256759E+01
   1.678102E-01 -2.249192E+01
   1.689223E-01 -2.241655E+01
   1.700344E-01 -2.234146E+01
   1.711465E-01 -2.226667E+01
   1.722586E-01 -2.219217E+01
   1.736603E-01 -2.209868E+01
   1.750619E-01 -2.200565E+01
   1.764636E-01 -2.191308E+01
   1.778652E-01 -2.182095E+01
   1.792669E-01 -2.172928E+01
   1.806686E-01 -2.163806E+01
   1.820702E-01 -2.154729E+01
   1.827711E-01 -2.150206E+01
   1.834719E-01 -2.145695E+01
   1.848736E-01 -2.136707E+01
   1.862752E-01 -2.127762E+01
   1.876769E-01 -2.118861E+01
   1.890785E-01 -2.110003E+01
   1.904802E-01 -2.101189E+01
   1.918819E-01 -2.092418E+01
   1.932835E-01 -2.083690E+01
   1.946852E-01 -2.075005E+01
   1.960869E-01 -2.066362E+01
   1.974885E-01 -2.057761E+01
   1.988902E-01 -2.049203E+01
   2.002918E-01 -2.040687E+01
   2.016935E-01 -2.032212E+01
   2.030952E-01 -2.023779E+01
   2.044968E-01 -2.015387E+01
   2.051977E-01 -2.011206E+01
   2.058985E-01 -2.007036E+01
   2.073002E-01 -1.998726E+01
   2.087018E-01 -1.990456E+01
   2.101035E-01 -1.982228E+01
   2.115051E-01 -1.974039E+01
   2.129068E-01 -1.965891E+01
   2.143085E-01 -1.957782E+01
   2.157101E-01 -1.949713E+01
   2.171118E-01 -1.941684E+01
   2.179951E-01 -1.936644E+01
   2.188784E-01 -1.931620E+01
   2.197617E-01 -1.926611E+01
   2.206451E-01 -1.921618E+01
   2.215284E-01 -1.916640E+01
   2.224117E-01 -1.911677E+01
   2.241783E-01 -1.901798E+01
   2.250616E-01 -1.896881E+01
   2.259450E-01 -1.891980E+01
   2.268283E-01 -1.887094E+01
   2.277116E-01 -1.882222E+01
   2.294782E-01 -1.872525E+01
   2.312448E-01 -1.862887E+01
   2.321282E-01 -1.858091E+01
   2.330115E-01 -1.853309E+01
   2.338948E-01 -1.848542E+01
   2.347781E-01 -1.843790E+01
   2.356614E-01 -1.839052E+01
   2.365447E-01 -1.834329E+01
   2.374281E-01 -1.829621E+01
   2.383114E-01 -1.824927E+01
   2.400780E-01 -1.815583E+01
   2.409613E-01 -1.810933E+01
   2.418446E-01 -1.806297E+01
   2.427280E-01 -1.801675E+01
   2.436113E-01 -1.797067E+01
   2.444946E-01 -1.792474E+01
   2.453779E-01 -1.787895E+01
   2.462612E-01 -1.783330E+01
   2.471445E-01 -1.778779E+01
   2.480278E-01 -1.774242E+01
   2.489112E-01 -1.769720E+01
   2.497945E-01 -1.765211E+01
   2.506778E-01 -1.760716E+01
   2.515611E-01 -1.756235E+01
   2.524444E-01 -1.751768E+01
   2.542111E-01 -1.742875E+01
   2.550944E-01 -1.738449E+01
   2.559777E-01 -1.734036E+01
   2.568610E-01 -1.729638E+01
   2.577443E-01 -1.725253E+01
   2.586276E-01 -1.720881E+01
   2.595109E-01 -1.716523E+01
   2.603943E-01 -1.712178E+01
   2.612776E-01 -1.707847E+01
   2.630442E-01 -1.699225E+01
   2.648108E-01 -1.690656E+01
   2.665775E-01 -1.682140E+01
   2.674608E-01 -1.677901E+01
   2.683441E-01 -1.673676E+01
   2.701107E-01 -1.665264E+01
   2.709941E-01 -1.661078E+01
   2.718774E-01 -1.656905E+01
   2.727607E-01 -1.652744E+01
   2.736440E-01 -1.648596E+01
   2.747573E-01 -1.643387E+01
   2.758706E-01 -1.638198E+01
   2.769839E-01 -1.633029E+01
   2.780973E-01 -1.627880E+01
   2.792106E-01 -1.622751E+01
   2.803239E-01 -1.617642E+01
   2.814372E-01 -1.612553E+01
   2.825505E-01 -1.607484E+01
   2.847772E-01 -1.597405E+01
   2.858905E-01 -1.592394E+01
   2.870038E-01 -1.587403E+01
   2.881171E-01 -1.582432E+01
   2.892304E-01 -1.577480E+01
   2.903437E-01 -1.572547E+01
   2.914571E-01 -1.567634E+01
   2.925704E-01 -1.562739E+01
   2.936837E-01 -1.557864E+01
   2.947970E-01 -1.553007E+01
   2.959103E-01 -1.548169E+01
   2.970236E-01 -1.543351E+01
   2.981370E-01 -1.538550E+01
   2.992503E-01 -1.533769E+01
   3.003636E-01 -1.529006E+01
   3.014769E-01 -1.524262E+01
   3.025902E-01 -1.519536E+01
   3.048168E-01 -1.510139E+01
   3.059302E-01 -1.505468E+01
   3.070435E-01 -1.500816E+01
   3.081568E-01 -1.496181E+01
   3.092701E-01 -1.491564E+01
   3.114967E-01 -1.482385E+01
   3.126101E-01 -1.477822E+01
   3.137234E-01 -1.473277E+01
   3.148367E-01 -1.468749E+01
   3.159500E-01 -1.464239E+01
   3.170633E-01 -1.459746E+01
   3.181766E-01 -1.455271E+01
   3.204033E-01 -1.446374E+01
   3.215166E-01 -1.441951E+01
   3.226299E-01 -1.437545E+01
   3.237432E-01 -1.433156E+01
   3.248565E-01 -1.428785E+01
   3.259699E-01 -1.424430E+01
   3.270832E-01 -1.420092E+01
   3.281965E-01 -1.415771E+01
   3.293098E-01 -1.411467E+01
   3.304231E-01 -1.407180E+01
   3.315364E-01 -1.402909E+01
   3.326497E-01 -1.398655E+01
   3.337631E-01 -1.394418E+01
   3.359897E-01 -1.385992E+01
   3.371030E-01 -1.381804E+01
   3.382163E-01 -1.377632E+01
   3.404430E-01 -1.369337E+01
   3.415563E-01 -1.365213E+01
   3.426696E-01 -1.361106E+01
   3.437829E-01 -1.357014E+01
   3.448962E-01 -1.352939E+01
   3.462994E-01 -1.347824E+01
   3.477026E-01 -1.342735E+01
   3.491058E-01 -1.337671E+01
   3.505090E-01 -1.332631E+01
   3.519122E-01 -1.327616E+01
   3.533155E-01 -1.322626E+01
   3.547187E-01 -1.317660E+01
   3.561219E-01 -1.312718E+01
   3.575251E-01 -1.307801E+01
   3.589283E-01 -1.302908E+01
   3.603315E-01 -1.298038E+01
   3.610331E-01 -1.295613E+01
   3.617347E-01 -1.293193E+01
   3.631379E-01 -1.288371E+01
   3.645411E-01 -1.283573E+01
   3.659443E-01 -1.278798E+01
   3.673475E-01 -1.274047E+01
   3.687507E-01 -1.269319E+01
   3.701539E-01 -1.264614E+01
   3.715571E-01 -1.259932E+01
   3.729603E-01 -1.255273E+01
   3.743635E-01 -1.250637E+01
   3.757667E-01 -1.246023E+01
   3.771699E-01 -1.241432E+01
   3.785731E-01 -1.236864E+01
   3.799763E-01 -1.232318E+01
   3.806779E-01 -1.230053E+01
   3.813795E-01 -1.227794E+01
   3.827827E-01 -1.223292E+01
   3.841860E-01 -1.218812E+01
   3.855892E-01 -1.214355E+01
   3.869924E-01 -1.209919E+01
   3.883956E-01 -1.205504E+01
   3.897988E-01 -1.201112E+01
   3.912020E-01 -1.196741E+01
   3.926052E-01 -1.192391E+01
   3.940084E-01 -1.188062E+01
   3.947100E-01 -1.185906E+01
   3.954116E-01 -1.183755E+01
   3.968148E-01 -1.179469E+01
   3.982180E-01 -1.175203E+01
   3.996212E-01 -1.170959E+01
   4.003228E-01 -1.168844E+01
   4.010244E-01 -1.166735E+01
   4.024276E-01 -1.162532E+01
   4.038308E-01 -1.158350E+01
   4.052340E-01 -1.154188E+01
   4.066372E-01 -1.150046E+01
   4.080404E-01 -1.145925E+01
   4.087420E-01 -1.143872E+01
   4.094436E-01 -1.141824E+01
   4.108468E-01 -1.137742E+01
   4.122500E-01 -1.133681E+01
   4.136532E-01 -1.129640E+01
   4.150565E-01 -1.125618E+01
   4.164597E-01 -1.121616E+01
   4.178629E-01 -1.117634E+01
   4.192661E-01 -1.113671E+01
   4.206693E-01 -1.109727E+01
   4.220725E-01 -1.105803E+01
   4.234757E-01 -1.101898E+01
   4.248789E-01 -1.098012E+01
   4.255805E-01 -1.096076E+01
   4.262821E-01 -1.094145E+01
   4.276853E-01 -1.090297E+01
   4.290885E-01 -1.086468E+01
   4.304917E-01 -1.082657E+01
   4.318949E-01 -1.078865E+01
   4.332981E-01 -1.075092E+01
   4.347013E-01 -1.071337E+01
   4.364699E-01 -1.066631E+01
   4.382385E-01 -1.061953E+01
   4.391228E-01 -1.059625E+01
   4.400070E-01 -1.057304E+01
   4.408913E-01 -1.054991E+01
   4.417756E-01 -1.052684E+01
   4.435442E-01 -1.048092E+01
   4.453128E-01 -1.043529E+01
   4.461971E-01 -1.041258E+01
   4.470813E-01 -1.038994E+01
   4.479656E-01 -1.036736E+01
   4.488499E-01 -1.034486E+01
   4.506185E-01 -1.030006E+01
   4.523871E-01 -1.025554E+01
   4.541556E-01 -1.021129E+01
   4.550399E-01 -1.018927E+01
   4.559242E-01 -1.016732E+01
   4.576928E-01 -1.012361E+01
   4.594614E-01 -1.008018E+01
   4.603457E-01 -1.005856E+01
   4.612299E-01 -1.003701E+01
   4.621142E-01 -1.001552E+01
   4.629985E-01 -9.994104E+00
   4.647671E-01 -9.951464E+00
   4.656514E-01 -9.930243E+00
   4.665357E-01 -9.909087E+00
   4.674200E-01 -9.887996E+00
   4.683042E-01 -9.866970E+00
   4.700728E-01 -9.825112E+00
   4.718414E-01 -9.783512E+00
   4.736100E-01 -9.742167E+00
   4.753785E-01 -9.701077E+00
   4.762628E-01 -9.680626E+00
   4.771471E-01 -9.660239E+00
   4.780314E-01 -9.639914E+00
   4.789157E-01 -9.619652E+00
   4.798000E-01 -9.599452E+00
   4.806843E-01 -9.579315E+00
   4.815686E-01 -9.559239E+00
   4.824528E-01 -9.539225E+00
   4.833371E-01 -9.519273E+00
   4.842214E-01 -9.499382E+00
   4.859900E-01 -9.459784E+00
   4.868743E-01 -9.440076E+00
   4.877586E-01 -9.420429E+00
   4.886429E-01 -9.400843E+00
   4.895271E-01 -9.381316E+00
   4.912957E-01 -9.342443E+00
   4.930643E-01 -9.303810E+00
   4.939486E-01 -9.284582E+00
   4.948329E-01 -9.265413E+00
   4.957172E-01 -9.246304E+00
   4.966014E-01 -9.227253E+00
   4.983700E-01 -9.189326E+00
   4.992543E-01 -9.170451E+00
   5.001386E-01 -9.151633E+00
   5.010229E-01 -9.132873E+00
   5.019072E-01 -9.114171E+00
   5.036757E-01 -9.076940E+00
   5.054443E-01 -9.039937E+00
   5.072129E-01 -9.003161E+00
   5.080972E-01 -8.984858E+00
   5.089815E-01 -8.966611E+00
   5.098658E-01 -8.948420E+00
   5.107500E-01 -8.930285E+00
   5.116343E-01 -8.912206E+00
   5.125186E-01 -8.894183E+00
   5.142872E-01 -8.858302E+00
   5.160558E-01 -8.822641E+00
   5.178243E-01 -8.787199E+00
   5.187086E-01 -8.769560E+00
   5.195929E-01 -8.751975E+00
   5.213615E-01 -8.716966E+00
   5.231301E-01 -8.682173E+00
   5.240144E-01 -8.664856E+00
   5.248986E-01 -8.647593E+00
   5.257829E-01 -8.630383E+00
   5.266672E-01 -8.613225E+00
   5.284358E-01 -8.579068E+00
   5.293201E-01 -8.562068E+00
   5.302044E-01 -8.545121E+00
   5.310887E-01 -8.528225E+00
   5.319729E-01 -8.511382E+00
   5.337415E-01 -8.477849E+00
   5.355101E-01 -8.444523E+00
   5.372787E-01 -8.411400E+00
   5.390472E-01 -8.378481E+00
   5.408158E-01 -8.345764E+00
   5.425844E-01 -8.313247E+00
   5.443530E-01 -8.280929E+00
   5.452373E-01 -8.264845E+00
   5.461215E-01 -8.248810E+00
   5.478901E-01 -8.216887E+00
   5.490047E-01 -8.196870E+00
   5.501192E-01 -8.176931E+00
   5.512337E-01 -8.157068E+00
   5.523483E-01 -8.137283E+00
   5.545774E-01 -8.097941E+00
   5.556919E-01 -8.078384E+00
   5.568064E-01 -8.058902E+00
   5.579210E-01 -8.039496E+00
   5.590355E-01 -8.020165E+00
   5.601501E-01 -8.000908E+00
   5.612646E-01 -7.981726E+00
   5.623791E-01 -7.962618E+00
   5.634937E-01 -7.943584E+00
   5.646082E-01 -7.924623E+00
   5.657228E-01 -7.905736E+00
   5.668373E-01 -7.886921E+00
   5.679519E-01 -7.868179E+00
   5.690664E-01 -7.849510E+00
   5.701809E-01 -7.830912E+00
   5.712955E-01 -7.812387E+00
   5.724100E-01 -7.793933E+00
   5.735246E-01 -7.775550E+00
   5.746391E-01 -7.757238E+00
   5.768682E-01 -7.720826E+00
   5.779827E-01 -7.702725E+00
   5.790973E-01 -7.684694E+00
   5.802118E-01 -7.666733E+00
   5.813263E-01 -7.648841E+00
   5.824409E-01 -7.631018E+00
   5.835554E-01 -7.613264E+00
   5.846700E-01 -7.595579E+00
   5.857845E-01 -7.577961E+00
   5.868990E-01 -7.560412E+00
   5.880136E-01 -7.542930E+00
   5.891281E-01 -7.525516E+00
   5.902427E-01 -7.508169E+00
   5.913572E-01 -7.490888E+00
   5.924718E-01 -7.473675E+00
   5.935863E-01 -7.456527E+00
   5.947008E-01 -7.439446E+00
   5.969299E-01 -7.405481E+00
   5.980445E-01 -7.388597E+00
   5.991590E-01 -7.371778E+00
   6.002735E-01 -7.355023E+00
   6.013881E-01 -7.338333E+00
   6.036172E-01 -7.305146E+00
   6.047317E-01 -7.288648E+00
   6.058462E-01 -7.272214E+00
   6.069608E-01 -7.255843E+00
   6.080753E-01 -7.239535E+00
   6.091899E-01 -7.223290E+00
   6.103044E-01 -7.207107E+00
   6.114189E-01 -7.190987E+00
   6.125335E-01 -7.174929E+00
   6.136480E-01 -7.158933E+00
   6.147626E-01 -7.142998E+00
   6.169917E-01 -7.111312E+00
   6.181062E-01 -7.095561E+00
   6.192207E-01 -7.079870E+00
   6.203353E-01 -7.064240E+00
   6.214498E-01 -7.048670E+00
   6.225644E-01 -7.033159E+00
   6.236789E-01 -7.017708E+00
   6.247934E-01 -7.002317E+00
   6.259080E-01 -6.986985E+00
   6.270225E-01 -6.971712E+00
   6.281371E-01 -6.956498E+00
   6.292516E-01 -6.941342E+00
   6.303661E-01 -6.926244E+00
   6.314807E-01 -6.911205E+00
   6.325952E-01 -6.896223E+00
   6.337098E-01 -6.881299E+00
   6.348243E-01 -6.866432E+00
   6.359388E-01 -6.851622E+00
   6.370534E-01 -6.836870E+00
   6.381679E-01 -6.822174E+00
   6.392825E-01 -6.807534E+00
   6.403970E-01 -6.792951E+00
   6.415116E-01 -6.778423E+00
   6.426261E-01 -6.763952E+00
   6.437406E-01 -6.749536E+00
   6.448552E-01 -6.735175E+00
   6.459697E-01 -6.720870E+00
   6.481988E-01 -6.692424E+00
   6.493133E-01 -6.678282E+00
   6.504279E-01 -6.664195E+00
   6.515424E-01 -6.650162E+00
   6.526570E-01 -6.636183E+00
   6.548860E-01 -6.608386E+00
   6.560006E-01 -6.594567E+00
   6.571151E-01 -6.580801E+00
   6.582297E-01 -6.567088E+00
   6.593442E-01 -6.553428E+00
   6.615733E-01 -6.526264E+00
   6.626878E-01 -6.512760E+00
   6.638024E-01 -6.499308E+00
   6.649169E-01 -6.485907E+00
   6.660315E-01 -6.472558E+00
   6.682605E-01 -6.446013E+00
   6.704896E-01 -6.419671E+00
   6.716042E-01 -6.406576E+00
